LogHead Version 1.0 -- USGS Geophysical Log Archive Header
 
Site ID (C1): 253604080183501
Station name (C12): G-3801
Other ID (C190): CP04-BCBCW-CO-009A
Date of log: 08-10-2004
Start time of log:  1156
Office/logging unit: Miami FISC/CWRS
Logging operator: Michael Wacker
Observer: 
 
Description of log-measuring point: Land surface
Height of log-measuring point above/below land-surface datum: 0.0 FT
Altitude of log-measuring point (NGVD): 6.359 FT
Log orientation: UNKNOWN
Magnetic declination: 
Logging direction: DOWN
Logging speed: 7.5 FT/MIN
Depth error after logging: 0.0 FT
 
Logging probe manufacturer: Mount Sopris
Logging probe model: 2FSB-1000
Logging probe serial number: None
Description of calibration/standardization: 
Date of calibration/standardization: 
Standard:  
Response:  
Standard:  
Response:  
 
Borehole fluid type: WATER
Depth of borehole fluid below log-measuring point:  FT
Borehole fluid resistivity/conductivity:  OHM-M, US/CM
Borehole fluid temperature:  F
Hydrologic conditions: 

Software for non-ASCII logs: WellCAD v. 3.2 ascii .LAS file format

Remarks: 

~A  DEPT[FT]    Fluid Te    Fluid Re    Fluid Co
     6.23496     28.0455    -999.250    -999.250
     6.33475     28.0626   -0.446832    -22379.8
     6.43454     28.0601   -0.451449    -22151.0
     6.53434     28.0918   -0.460494    -21715.8
     6.63413     28.0821   -0.464798    -21515.0
     6.73392     27.9699   -0.451137    -22166.5
     6.83371     28.0089   -0.437850    -22839.2
     6.93351     28.0553   -0.451262    -22160.1
     7.03330     28.1040   -0.446708    -22386.0
     7.13309     28.0455   -0.442466    -22601.1
     7.23288     28.0699   -0.460244    -21727.9
     7.33267     27.9967   -0.446832    -22379.8
     7.43247     28.1016   -0.451449    -22151.0
     7.53226     28.0650   -0.460681    -21707.5
     7.63205     28.0211   -0.478273    -20909.6
     7.73184     28.0211   -0.451449    -22151.0
     7.83164     28.0553   -0.460556    -21713.0
     7.93143     28.0455   -0.469477    -21300.3
     8.03122     28.0162   -0.465172    -21497.7
     8.13101     27.9650   -0.478709    -20889.6
     8.23080     28.0284   -0.483138    -20698.1
     8.33060     28.0748   -0.478771    -20886.9
     8.43039     27.9748   -0.487692    -20504.8
     8.53018     27.9479   -0.483200    -20695.4
     8.62997     27.9455   -0.483200    -20695.4
     8.72976     28.0187   -0.483636    -20677.8
     8.82956     27.9894   -0.515139    -19412.3
     8.92935     27.9479   -0.519942    -19233.4
     9.02914     27.9138   -0.542399    -18436.6
     9.12893     28.0187   -0.542337    -18438.7
     9.22873     27.9626   -0.538032    -18586.4
     9.32852     27.9187   -0.551320    -18138.5
     9.42831     28.0211   -0.538344    -18576.6
     9.52810     27.8796   -0.574213    -17415.2
     9.62790     28.0162   -0.569535    -17558.3
     9.72769     27.8528   -0.556434    -17972.1
     9.82748     27.9186   -0.583071    -17150.9
     9.92727     27.9577   -0.560863    -17829.9
     10.0271     27.9162   -0.579016    -17270.8
     10.1269     27.9845   -0.592241    -16885.2
     10.2266     27.8260   -0.574338    -17411.4
     10.3264     28.0089   -0.578455    -17288.0
     10.4262     27.8503   -0.551569    -18130.1
     10.5260     27.9333   -0.556372    -17974.0
     10.6258     27.8918   -0.578891    -17274.4
     10.7256     27.8284   -0.583258    -17145.1
     10.8254     27.9504   -0.575148    -17389.4
     10.9252     27.8284   -0.638776    -15656.4
     11.0250     27.8674   -0.693109    -14428.1
     11.1248     27.8845   -0.724799    -13797.0
     11.2246     27.9308   -0.742578    -13466.7
     11.3244     27.8089   -0.729415    -13709.8
     11.4242     27.9016   -0.751872    -13300.1
     11.5239     27.7796   -0.752121    -13295.8
     11.6237     27.8479   -0.770212    -12983.5
     11.7235     27.8528   -0.780004    -12821.4
     11.8233     27.8747   -0.839203    -11916.8
     11.9231     27.8747   -0.898340    -11132.2
     12.0229     27.8430   -0.953483    -10489.0
     12.1227     27.9089    -1.04705    -9557.65
     12.2225     27.7796    -1.31897    -7583.33
     12.3223     27.8284    -1.49438    -6691.73
     12.4221     27.7772    -1.51272    -6610.62
     12.5219     27.7576    -1.54023    -6492.58
     12.6217     27.7820    -1.58103    -6325.02
     12.7215     27.7747    -1.60785    -6219.47
     12.8212     27.7479    -1.59906    -6253.69
     12.9210     27.6967    -1.61253    -6201.42
     13.0208     27.7113    -1.61247    -6201.67
     13.1206     27.6918    -1.60748    -6220.96
     13.2204     27.6991    -1.57130    -6364.17
     13.3202     27.6771    -1.55321    -6438.29
     13.4200     27.6723    -1.54416    -6476.00
     13.5198     27.6552    -1.53992    -6493.85
     13.6196     27.6479    -1.55795    -6418.69
     13.7194     27.5991    -1.56263    -6399.48
     13.8192     27.6064    -1.57616    -6344.51
     13.9190     27.5820    -1.58091    -6325.50
     14.0188     27.5552    -1.59881    -6254.66
     14.1185     27.5869    -1.59426    -6272.52
     14.2183     27.5771    -1.58989    -6289.75
     14.3181     27.5381    -1.59881    -6254.66
     14.4179     27.5357    -1.59438    -6272.03
     14.5177     27.5430    -1.59881    -6254.66
     14.6175     27.5405    -1.59450    -6271.55
     14.7173     27.5210    -1.60779    -6219.72
     14.8171     27.5088    -1.59457    -6271.31
     14.9169     27.4893    -1.61235    -6202.15
     15.0167     27.4844    -1.59900    -6253.93
     15.1165     27.4844    -1.60798    -6218.99
     15.2163     27.4942    -1.60810    -6218.51
     15.3161     27.5039    -1.61702    -6184.20
     15.4158     27.4625    -1.61135    -6206.23
     15.5156     27.4795    -1.52470    -6559.02
     15.6154     27.4795    -1.42945    -6995.93
     15.7152     27.4503    -1.36139    -7345.57
     15.8150     27.4552    -1.31149    -7625.02
     15.9148     27.4381    -1.27599    -7837.11
     16.0146     27.4064    -1.30650    -7654.35
     16.1144     27.3625    -1.23881    -8072.28
     16.2142     27.2820    -1.21741    -8214.55
     16.3140     27.2380    -1.29433    -7726.11
     16.4138     27.1966    -1.33469    -7492.37
     16.5136     27.1527    -1.33039    -7516.63
     16.6133     27.0356    -1.34367    -7442.29
     16.7131     27.1478    -1.33070    -7514.93
     16.8129     27.0966    -1.36663    -7317.27
     16.9127     27.0966    -1.36688    -7315.96
     17.0125     27.0502    -1.38478    -7221.35
     17.1123     27.0551    -1.38048    -7243.88
     17.2121     27.0161    -1.39414    -7172.90
     17.3119     26.9941    -1.40768    -7103.91
     17.4117     26.9697    -1.41229    -7080.69
     17.5115     26.9526    -1.42140    -7035.32
     17.6113     26.9477    -1.43051    -6990.53
     17.7111     26.9429    -1.43955    -6946.61
     17.8109     26.9185    -1.44423    -6924.11
     17.9106     26.8941    -1.45795    -6858.94
     18.0104     26.9185    -1.47580    -6776.01
     18.1102     26.8697    -1.46719    -6815.80
     18.2100     26.8843    -1.49413    -6692.84
     18.3098     26.8575    -1.49420    -6692.56
     18.4096     26.8331    -1.49888    -6671.68
     18.5094     26.8355    -1.51235    -6612.23
     18.6092     26.8307    -1.51235    -6612.23
     18.7090     26.8038    -1.51241    -6611.96
     18.8088     26.8307    -1.51703    -6591.84
     18.9086     26.7941    -1.52601    -6553.03
     19.0084     26.8331    -1.52614    -6552.50
     19.1082     26.7697    -1.53512    -6514.15
     19.2079     26.8209    -1.53524    -6513.63
     19.3077     26.7697    -1.54441    -6474.96
     19.4075     26.7892    -1.55789    -6418.95
     19.5073     26.7526    -1.55807    -6418.19
     19.6071     26.8038    -1.57155    -6363.15
     19.7069     26.7672    -1.57167    -6362.65
     19.8067     26.7550    -1.58078    -6325.99
     19.9065     26.7770    -1.58964    -6290.74
     20.0063     26.7184    -1.58090    -6325.50
     20.1061     26.7770    -1.59900    -6253.93
     20.2059     26.7380    -1.60798    -6218.99
     20.3057     26.7111    -1.60823    -6218.04
     20.4055     26.7575    -1.62607    -6149.80
     20.5052     26.7404    -1.61721    -6183.49
     20.6050     26.7233    -1.62626    -6149.09
     20.7048     26.7380    -1.63093    -6131.46
     20.8046     26.7014    -1.64441    -6081.21
     20.9044     26.7282    -1.64441    -6081.21
     21.0042     26.6916    -1.64441    -6081.21
     21.1040     26.7062    -1.64453    -6080.75
     21.2038     26.7038    -1.65370    -6047.04
     21.3036     26.7111    -1.66724    -5997.94
     21.4034     26.6989    -1.67154    -5982.49
     21.5032     26.7014    -1.65819    -6030.66
     21.6030     26.6916    -1.66718    -5998.16
     21.7028     26.6550    -1.66724    -5997.94
     21.8025     26.6721    -1.67198    -5980.94
     21.9023     26.6550    -1.68988    -5917.57
     22.0021     26.6404    -1.68546    -5933.12
     22.1019     26.6526    -1.69001    -5917.13
     22.2017     26.5867    -1.69462    -5901.01
     22.3015     26.5965    -1.70367    -5869.68
     22.4013     26.5867    -1.70835    -5853.61
     22.5011     26.5818    -1.72182    -5807.80
     22.6009     26.5696    -1.72189    -5807.59
     22.7007     26.5257    -1.72631    -5792.69
     22.8005     26.5233    -1.72207    -5806.97
     22.9003     26.5160    -1.74016    -5746.59
     23.0000     26.5306    -1.74927    -5716.67
     23.0998     26.5111    -1.75825    -5687.46
     23.1996     26.5111    -1.75825    -5687.46
     23.2994     26.4696    -1.75856    -5686.47
     23.3992     26.4525    -1.78115    -5614.36
     23.4990     26.4501    -1.79032    -5585.61
     23.5988     26.4257    -1.80379    -5543.88
     23.6986     26.4208    -1.80385    -5543.69
     23.7984     26.4306    -1.80859    -5529.17
     23.8982     26.4355    -1.82668    -5474.40
     23.9980     26.3989    -1.83598    -5446.70
     24.0978     26.3745    -1.85862    -5380.33
     24.1976     26.4135    -1.87210    -5341.60
     24.2973     26.4184    -1.87222    -5341.25
     24.3971     26.3940    -1.88139    -5315.22
     24.4969     26.3794    -1.89487    -5277.42
     24.5967     26.3842    -1.89505    -5276.90
     24.6965     26.3940    -1.90865    -5239.30
     24.7963     26.3379    -1.91788    -5214.09
     24.8961     26.3501    -1.93579    -5165.86
     24.9959     26.3574    -1.93136    -5177.70
     25.0957     26.3647    -1.93604    -5165.20
     25.1955     26.3745    -1.94951    -5129.49
     25.2953     26.3794    -1.94964    -5129.17
     25.3951     26.3623    -1.95862    -5105.64
     25.4949     26.3452    -1.95862    -5105.64
     25.5946     26.3281    -1.95862    -5105.64
     25.6944     26.3525    -1.95881    -5105.16
     25.7942     26.3257    -1.97247    -5069.80
     25.8940     26.3037    -1.98600    -5035.24
     25.9938     26.3086    -1.99068    -5023.41
     26.0936     26.3354    -2.00403    -4989.94
     26.1934     26.3184    -1.99492    -5012.72
     26.2932     26.3037    -1.98600    -5035.24
     26.3930     26.3330    -1.99043    -5024.03
     26.4928     26.2915    -1.98582    -5035.71
     26.5926     26.2720    -1.97696    -5058.28
     26.6924     26.2940    -1.98600    -5035.24
     26.7922     26.2964    -1.99056    -5023.72
     26.8919     26.2964    -1.99505    -5012.41
     26.9917     26.2769    -1.99505    -5012.41
     27.0915     26.2623    -1.99530    -5011.79
     27.1913     26.2842    -2.01326    -4967.06
     27.2911     26.2379    -2.01320    -4967.21
     27.3909     26.2379    -2.00890    -4977.86
     27.4907     26.2281    -2.02250    -4944.39
     27.5905     26.2110    -2.03142    -4922.67
     27.6903     26.2379    -2.02711    -4933.13
     27.7901     26.2354    -2.04065    -4900.40
     27.8899     26.2574    -2.04520    -4889.49
     27.9897     26.2452    -2.04976    -4878.63
     28.0895     26.2159    -2.05443    -4867.52
     28.1892     26.1940    -2.06791    -4835.80
     28.2890     26.2159    -2.06797    -4835.66
     28.3888     26.2159    -2.07240    -4825.32
     28.4886     26.2013    -2.06809    -4835.37
     28.5884     26.1964    -2.08157    -4804.07
     28.6882     26.2208    -2.08157    -4804.07
     28.7880     26.2232    -2.08163    -4803.92
     28.8878     26.2257    -2.08606    -4793.72
     28.9876     26.2062    -2.08145    -4804.35
     29.0874     26.2062    -2.07246    -4825.18
     29.1872     26.2281    -2.07246    -4825.18
     29.2870     26.1915    -2.07246    -4825.18
     29.3867     26.2062    -2.07246    -4825.18
     29.4865     26.1915    -2.07259    -4824.89
     29.5863     26.1940    -2.08157    -4804.07
     29.6861     26.2062    -2.08163    -4803.92
     29.7859     26.2110    -2.08619    -4793.44
     29.8857     26.2037    -2.09068    -4783.14
     29.9855     26.1818    -2.09080    -4782.86
     30.0853     26.1866    -2.09978    -4762.39
     30.1851     26.1744    -2.09991    -4762.11
     30.2849     26.1818    -2.10889    -4741.83
     30.3847     26.1818    -2.10877    -4742.11
     30.4845     26.1622    -2.09985    -4762.25
     30.5843     26.1866    -2.10452    -4751.67
     30.6840     26.1988    -2.11781    -4721.85
     30.7838     26.1769    -2.10440    -4751.95
     30.8836     26.2013    -2.10889    -4741.83
     30.9834     26.1622    -2.10902    -4741.55
     31.0832     26.1574    -2.11806    -4721.30
     31.1830     26.1818    -2.12249    -4711.44
     31.2828     26.1793    -2.11806    -4721.30
     31.3826     26.1818    -2.12249    -4711.44
     31.4824     26.1744    -2.11800    -4721.44
     31.5822     26.1647    -2.11788    -4721.71
     31.6820     26.1647    -2.10889    -4741.83
     31.7818     26.1647    -2.10902    -4741.55
     31.8816     26.1744    -2.11800    -4721.44
     31.9813     26.2013    -2.11800    -4721.44
     32.0811     26.1769    -2.11812    -4721.16
     32.1809     26.1842    -2.12705    -4701.36
     32.2807     26.1769    -2.12237    -4711.72
     32.3805     26.1891    -2.10889    -4741.83
     32.4803     26.1793    -2.10908    -4741.41
     32.5801     26.1793    -2.12262    -4711.17
     32.6799     26.1574    -2.12729    -4700.81
     32.7797     26.1696    -2.14077    -4671.22
     32.8795     26.1330    -2.14095    -4670.82
     32.9793     26.1476    -2.15443    -4641.60
     33.0791     26.1452    -2.15449    -4641.46
     33.1789     26.1574    -2.15905    -4631.68
     33.2786     26.1452    -2.16366    -4621.80
     33.3784     26.1671    -2.17271    -4602.55
     33.4782     26.1915    -2.17732    -4592.80
     33.5780     26.1622    -2.18631    -4573.92
     33.6778     26.1671    -2.18624    -4574.05
     33.7776     26.1574    -2.18181    -4583.34
     33.8774     26.1598    -2.18624    -4574.05
     33.9772     26.1671    -2.18194    -4583.08
     34.0770     26.1574    -2.19529    -4555.21
     34.1768     26.1818    -2.18631    -4573.92
     34.2766     26.1720    -2.18631    -4573.92
     34.3764     26.1671    -2.18643    -4573.67
     34.4762     26.1549    -2.19529    -4555.21
     34.5759     26.1452    -2.18649    -4573.54
     34.6757     26.1525    -2.19997    -4545.52
     34.7755     26.1574    -2.19991    -4545.65
     34.8753     26.1622    -2.19554    -4554.69
     34.9751     26.1574    -2.20465    -4535.88
     35.0749     26.1549    -2.21363    -4517.47
     35.1747     26.1403    -2.21363    -4517.47
     35.2745     26.1452    -2.21375    -4517.22
     35.3743     26.1769    -2.22267    -4499.08
     35.4741     26.1769    -2.21812    -4508.32
     35.5739     26.1744    -2.21369    -4517.34
     35.6737     26.1866    -2.21818    -4508.19
     35.7734     26.1720    -2.21837    -4507.82
     35.8732     26.1549    -2.23166    -4480.98
     35.9730     26.1574    -2.21818    -4508.19
     36.0728     26.1622    -2.21837    -4507.82
     36.1726     26.1476    -2.23172    -4480.85
     36.2724     26.1720    -2.22267    -4499.08
     36.3722     26.1720    -2.21837    -4507.82
     36.4720     26.1647    -2.23172    -4480.85
     36.5718     26.1476    -2.22286    -4498.71
     36.6716     26.1720    -2.23191    -4480.48
     36.7714     26.1818    -2.23640    -4471.48
     36.8712     26.1379    -2.23640    -4471.48
     36.9710     26.1598    -2.23640    -4471.48
     37.0707     26.1744    -2.23646    -4471.35
     37.1705     26.1671    -2.24095    -4462.39
     37.2703     26.1525    -2.24089    -4462.51
     37.3701     26.1769    -2.23646    -4471.35
     37.4699     26.1379    -2.24095    -4462.39
     37.5697     26.1525    -2.24108    -4462.14
     37.6695     26.1671    -2.24987    -4444.70
     37.7693     26.1500    -2.23640    -4471.48
     37.8691     26.1281    -2.23646    -4471.35
     37.9689     26.1574    -2.24095    -4462.39
     38.0687     26.1305    -2.24089    -4462.51
     38.1685     26.1500    -2.23640    -4471.48
     38.2683     26.1403    -2.23640    -4471.48
     38.3680     26.1549    -2.23640    -4471.48
     38.4678     26.1305    -2.23634    -4471.60
     38.5676     26.1232    -2.23191    -4480.48
     38.6674     26.1208    -2.23621    -4471.85
     38.7672     26.1159    -2.22274    -4498.96
     38.8670     26.1110    -2.22267    -4499.08
     38.9668     26.1159    -2.21824    -4508.07
     39.0666     26.1354    -2.22274    -4498.96
     39.1664     26.1281    -2.22286    -4498.71
     39.2662     26.1305    -2.23166    -4480.98
     39.3660     26.1403    -2.21818    -4508.19
     39.4658     26.1257    -2.21800    -4508.58
     39.5656     26.1208    -2.20452    -4536.13
     39.6653     26.1403    -2.20446    -4536.26
     39.7651     26.1110    -2.19991    -4545.65
     39.8649     26.1159    -2.19529    -4555.21
     39.9647     26.1013    -2.18631    -4573.92
     40.0645     26.1257    -2.18618    -4574.18
     40.1643     26.1452    -2.17720    -4593.06
     40.2641     26.1257    -2.17701    -4593.45
     40.3639     26.1257    -2.16348    -4622.19
     40.4637     26.1476    -2.15892    -4631.94
     40.5635     26.1232    -2.15418    -4642.14
     40.6633     26.1500    -2.13621    -4681.18
     40.7631     26.1159    -2.13609    -4681.45
     40.8629     26.1037    -2.12705    -4701.36
     40.9626     26.0988    -2.12249    -4711.44
     41.0624     26.0964    -2.11781    -4721.85
     41.1622     26.1013    -2.10434    -4752.09
     41.2620     26.1037    -2.10434    -4752.09
     41.3618     26.1086    -2.10440    -4751.95
     41.4616     26.1183    -2.10883    -4741.97
     41.5614     26.1257    -2.10434    -4752.09
     41.6612     26.1159    -2.10428    -4752.23
     41.7610     26.1159    -2.09978    -4762.39
     41.8608     26.1086    -2.09966    -4762.67
     41.9606     26.0866    -2.09062    -4783.28
     42.0604     26.1208    -2.08619    -4793.44
     42.1602     26.1403    -2.09080    -4782.86
     42.2599     26.1378    -2.09978    -4762.39
     42.3597     26.1257    -2.09960    -4762.82
     42.4595     26.1330    -2.08619    -4793.44
     42.5593     26.0964    -2.09068    -4783.14
     42.6591     26.1257    -2.09062    -4783.28
     42.7589     26.0988    -2.08631    -4793.16
     42.8587     26.0915    -2.09966    -4762.67
     42.9585     26.1013    -2.09068    -4783.14
     43.0583     26.1403    -2.09062    -4783.28
     43.1581     26.1061    -2.08612    -4793.58
     43.2579     26.0988    -2.08606    -4793.72
     43.3577     26.1403    -2.08169    -4803.78
     43.4575     26.1061    -2.09080    -4782.86
     43.5572     26.0915    -2.09966    -4762.67
     43.6570     26.1281    -2.09062    -4783.28
     43.7568     26.1305    -2.08631    -4793.15
     43.8566     26.1305    -2.09960    -4762.82
     43.9564     26.0915    -2.08612    -4793.58
     44.0562     26.0964    -2.08631    -4793.16
     44.1560     26.1061    -2.09960    -4762.82
     44.2558     26.0964    -2.08612    -4793.58
     44.3556     26.1403    -2.08612    -4793.58
     44.4554     26.0915    -2.08619    -4793.44
     44.5552     26.0866    -2.09093    -4782.58
     44.6550     26.0964    -2.10957    -4740.33
     44.7547     26.1208    -2.15936    -4631.02
     44.8545     26.1208    -2.18680    -4572.90
     44.9543     26.1013    -2.22317    -4498.09
     45.0541     26.1061    -2.25467    -4435.23
     45.1539     26.0696    -2.25929    -4426.17
     45.2537     26.0647    -2.26840    -4408.40
     45.3535     26.0744    -2.27775    -4390.30
     45.4533     26.0988    -2.30470    -4338.95
     45.5531     26.0695    -2.30470    -4338.95
     45.6529     26.0403    -2.30477    -4338.83
     45.7527     26.0452    -2.30951    -4329.94
     45.8525     26.0452    -2.32735    -4296.74
     45.9523     26.0866    -2.31849    -4313.15
     46.0520     26.0598    -2.32753    -4296.39
     46.1518     26.0500    -2.33203    -4288.12
     46.2516     26.0500    -2.33209    -4288.00
     46.3514     26.0403    -2.33658    -4279.76
     46.4512     26.0061    -2.33652    -4279.87
     46.5510     26.0159    -2.33203    -4288.12
     46.6508     26.0110    -2.33209    -4288.00
     46.7506     26.0451    -2.33658    -4279.76
     46.8504     26.0110    -2.33652    -4279.87
     46.9502     25.9915    -2.33196    -4288.23
     47.0500     26.0086    -2.32747    -4296.51
     47.1498     25.9939    -2.32735    -4296.74
     47.2496     26.0208    -2.31830    -4313.50
     47.3493     25.9939    -2.31381    -4321.87
     47.4491     25.9939    -2.31381    -4321.87
     47.5489     26.0159    -2.31356    -4322.34
     47.6487     25.9744    -2.29553    -4356.28
     47.7485     25.9842    -2.29110    -4364.71
     47.8483     25.9768    -2.29553    -4356.28
     47.9481     25.9427    -2.29104    -4364.82
     48.0479     25.9159    -2.29110    -4364.71
     48.1477     25.9281    -2.29547    -4356.40
     48.2475     25.9671    -2.28637    -4373.76
     48.3473     25.9305    -2.27738    -4391.01
     48.4471     25.9500    -2.27738    -4391.01
     48.5469     25.9451    -2.27726    -4391.25
     48.6466     25.8939    -2.26815    -4408.88
     48.7464     25.8841    -2.25929    -4426.17
     48.8462     25.8890    -2.26827    -4408.64
     48.9460     25.9183    -2.26827    -4408.64
     49.0458     25.8671    -2.26809    -4409.00
     49.1456     25.8622    -2.25461    -4435.35
     49.2454     25.8646    -2.25443    -4435.72
     49.3452     25.8793    -2.24089    -4462.51
     49.4450     25.8524    -2.23646    -4471.35
     49.5448     25.8646    -2.24114    -4462.02
     49.6446     25.8183    -2.25455    -4435.47
     49.7444     25.8476    -2.25012    -4444.21
     49.8442     25.8158    -2.25467    -4435.23
     49.9439     25.7768    -2.25910    -4426.53
     50.0437     25.7671    -2.25461    -4435.35
     50.1435     25.7866    -2.25461    -4435.35
     50.2433     25.7890    -2.25461    -4435.35
     50.3431     25.7817    -2.25480    -4434.99
     50.4429     25.7475    -2.26834    -4408.52
     50.5427     25.7597    -2.27283    -4399.81
     50.6425     25.7232    -2.27283    -4399.81
     50.7423     25.7427    -2.27289    -4399.69
     50.8421     25.7378    -2.27732    -4391.13
     50.9419     25.7280    -2.27283    -4399.81
     51.0417     25.7231    -2.27289    -4399.69
     51.1414     25.7036    -2.27738    -4391.01
     51.2412     25.7158    -2.27738    -4391.01
     51.3410     25.6939    -2.27757    -4390.65
     51.4408     25.7036    -2.29086    -4365.18
     51.5406     25.7036    -2.27738    -4391.01
     51.6404     25.6768    -2.27757    -4390.65
     51.7402     25.6866    -2.29098    -4364.94
     51.8400     25.6719    -2.28637    -4373.76
     51.9398     25.6719    -2.27775    -4390.30
     52.0396    -999.250    -2.30470    -4338.95
